Time (ns),Neutrons out per ns,DSR,Tion(keV) new,Time shifted per above cell for overplotting
9.1,4.73E+16,0.0270058,5.79259,9.39
9.101,4.91E+16,0.0272201,5.77362,9.391
9.102,5.06E+16,0.0274168,5.76673,9.392
9.103,5.17E+16,0.027584,5.7799,9.393
9.104,5.28E+16,0.0277512,5.79307,9.394
9.105,5.42E+16,0.0279202,5.80461,9.395
9.106,5.62E+16,0.0281215,5.78746,9.396
9.107,5.83E+16,0.0283228,5.77031,9.397
9.108,6.03E+16,0.0285241,5.75316,9.398
9.109,6.19E+16,0.0287681,5.72099,9.399
9.11,6.31E+16,0.0290278,5.68331,9.4
9.111,6.45E+16,0.0292875,5.64563,9.401
9.112,6.64E+16,0.0295306,5.6242,9.402
9.113,6.88E+16,0.0297495,5.6263,9.403
9.114,7.13E+16,0.0299685,5.62841,9.404
9.115,7.35E+16,0.0301831,5.63109,9.405
9.116,7.51E+16,0.0303511,5.63987,9.406
9.117,7.65E+16,0.0305191,5.64864,9.407
9.118,7.84E+16,0.0306871,5.65742,9.408
9.119,8.12E+16,0.0309493,5.65959,9.409
9.12,8.43E+16,0.031241,5.65969,9.41
9.121,8.70E+16,0.0314922,5.66607,9.411
9.122,8.91E+16,0.0317091,5.67591,9.412
9.123,9.08E+16,0.0318979,5.68773,9.413
9.124,9.28E+16,0.0320866,5.69955,9.414
9.125,9.53E+16,0.0322814,5.7043,9.415
9.126,9.85E+16,0.0325228,5.65384,9.416
9.127,1.02E+17,0.0327643,5.60338,9.417
9.128,1.05E+17,0.0330058,5.55292,9.418
9.129,1.08E+17,0.0331491,5.58978,9.419
9.13,1.10E+17,0.0332662,5.64995,9.42
9.131,1.13E+17,0.0333834,5.71013,9.421
9.132,1.16E+17,0.0335507,5.73545,9.422
9.133,1.20E+17,0.0337761,5.72058,9.423
9.134,1.24E+17,0.0340014,5.7057,9.424
9.135,1.28E+17,0.0342293,5.69245,9.425
9.136,1.32E+17,0.0344726,5.68921,9.426
9.137,1.36E+17,0.0347159,5.68597,9.427
9.138,1.39E+17,0.0349592,5.68273,9.428
9.139,1.43E+17,0.0351539,5.68254,9.429
9.14,1.47E+17,0.0353394,5.68292,9.43
9.141,1.51E+17,0.0355249,5.6833,9.431
9.142,1.56E+17,0.0356886,5.69711,9.432
9.143,1.60E+17,0.035838,5.71964,9.433
9.144,1.65E+17,0.0359875,5.74217,9.434
9.145,1.71E+17,0.0361501,5.75421,9.435
9.146,1.77E+17,0.0363302,5.7524,9.436
9.147,1.82E+17,0.0365102,5.75059,9.437
9.148,1.85E+17,0.0366937,5.75841,9.438
9.149,1.85E+17,0.0368846,5.7874,9.439
9.15,1.91E+17,0.0370755,5.81639,9.44
9.151,2.05E+17,0.0374441,5.84948,9.441
9.152,2.14E+17,0.0374788,5.84832,9.442
9.153,2.19E+17,0.0375134,5.84716,9.443
9.154,2.23E+17,0.0376317,5.83602,9.444
9.155,2.29E+17,0.0380089,5.79399,9.445
9.156,2.37E+17,0.0383862,5.75196,9.446
9.157,2.45E+17,0.0386767,5.72846,9.447
9.158,2.53E+17,0.0387555,5.7502,9.448
9.159,2.61E+17,0.0388343,5.77194,9.449
9.16,2.69E+17,0.0389477,5.78698,9.45
9.161,2.78E+17,0.0391154,5.79146,9.451
9.162,2.87E+17,0.0392832,5.79594,9.452
9.163,2.96E+17,0.0394583,5.81968,9.453
9.164,3.06E+17,0.0396399,5.86014,9.454
9.165,3.16E+17,0.0398215,5.9006,9.455
9.166,3.27E+17,0.0399086,5.90463,9.456
9.167,3.38E+17,0.039961,5.89532,9.457
9.168,3.50E+17,0.0400135,5.886,9.458
9.169,3.62E+17,0.0402536,5.87443,9.459
9.17,3.74E+17,0.0404979,5.86281,9.46
9.171,3.87E+17,0.0407087,5.86265,9.461
9.172,4.00E+17,0.0408295,5.89313,9.462
9.173,4.14E+17,0.0409503,5.9236,9.463
9.174,4.29E+17,0.0410309,5.98889,9.464
9.175,4.43E+17,0.0410858,6.07629,9.465
9.176,4.59E+17,0.0411408,6.16369,9.466
9.177,4.77E+17,0.0412639,6.12344,9.467
9.178,4.93E+17,0.0413876,6.08227,9.468
9.179,5.08E+17,0.0414623,6.06481,9.469
9.18,5.23E+17,0.0414677,6.0809,9.47
9.181,5.45E+17,0.0418234,6.1657,9.471
9.182,5.66E+17,0.0419428,6.17751,9.472
9.183,5.84E+17,0.0420223,6.17772,9.473
9.184,6.04E+17,0.0420293,6.17412,9.474
9.185,6.25E+17,0.0419175,6.16428,9.475
9.186,6.47E+17,0.0418057,6.15443,9.476
9.187,6.68E+17,0.0419988,6.18111,9.477
9.188,6.90E+17,0.0422182,6.21095,9.478
9.189,7.13E+17,0.0423104,6.24528,9.479
9.19,7.36E+17,0.042274,6.28412,9.48
9.191,7.61E+17,0.0422576,6.32322,9.481
9.192,7.85E+17,0.0424023,6.36441,9.482
9.193,8.09E+17,0.0425469,6.40559,9.483
9.194,8.35E+17,0.0425368,6.42075,9.484
9.195,8.61E+17,0.0424775,6.42762,9.485
9.196,8.88E+17,0.0424453,6.43887,9.486
9.197,9.16E+17,0.0424475,6.45565,9.487
9.198,9.44E+17,0.0424204,6.46338,9.488
9.199,9.74E+17,0.0422412,6.42391,9.489
9.2,1.00E+18,0.0420621,6.38444,9.49
9.201,1.03E+18,0.0422499,6.42369,9.491
9.202,1.06E+18,0.042475,6.47094,9.492
9.203,1.10E+18,0.0424507,6.52734,9.493
9.204,1.13E+18,0.042308,6.58808,9.494
9.205,1.16E+18,0.0422876,6.61155,9.495
9.206,1.20E+18,0.042406,6.59274,9.496
9.207,1.24E+18,0.0424045,6.60048,9.497
9.208,1.28E+18,0.0421336,6.66785,9.498
9.209,1.31E+18,0.0419289,6.71008,9.499
9.21,1.34E+18,0.0419824,6.65445,9.5
9.211,1.39E+18,0.0421531,6.77547,9.501
9.212,1.44E+18,0.0421043,6.80405,9.502
9.213,1.48E+18,0.0420511,6.81165,9.503
9.214,1.53E+18,0.0419731,6.70466,9.504
9.215,1.57E+18,0.0418966,6.6403,9.505
9.216,1.62E+18,0.0418258,6.74311,9.506
9.217,1.67E+18,0.0417058,6.84816,9.507
9.218,1.73E+18,0.0414695,6.95852,9.508
9.219,1.78E+18,0.0412837,7.0111,9.509
9.22,1.84E+18,0.0411642,6.98811,9.51
9.221,1.90E+18,0.0410831,6.99411,9.511
9.222,1.96E+18,0.0410265,7.01867,9.512
9.223,2.02E+18,0.0409684,7.04833,9.513
9.224,2.08E+18,0.040931,7.07574,9.514
9.225,2.14E+18,0.0411591,7.06084,9.515
9.226,2.21E+18,0.0411693,7.07852,9.516
9.227,2.28E+18,0.0407842,7.15533,9.517
9.228,2.36E+18,0.0405492,7.2392,9.518
9.229,2.43E+18,0.0403886,7.32599,9.519
9.23,2.51E+18,0.0402207,7.35576,9.52
9.231,2.59E+18,0.039969,7.37418,9.521
9.232,2.67E+18,0.0395801,7.37405,9.522
9.233,2.75E+18,0.0397211,7.29581,9.523
9.234,2.83E+18,0.039782,7.24672,9.524
9.235,2.93E+18,0.0388513,7.41685,9.525
9.236,3.03E+18,0.0383433,7.52518,9.526
9.237,3.12E+18,0.0381497,7.58109,9.527
9.238,3.20E+18,0.0386186,7.47705,9.528
9.239,3.33E+18,0.0385814,7.51936,9.529
9.24,3.40E+18,0.0382069,7.78002,9.53
9.241,3.49E+18,0.038556,7.84233,9.531
9.242,3.62E+18,0.038258,7.86348,9.532
9.243,3.73E+18,0.0375377,7.93713,9.533
9.244,3.85E+18,0.0371174,7.94362,9.534
9.245,3.97E+18,0.0368473,7.95061,9.535
9.246,4.08E+18,0.0367435,7.9805,9.536
9.247,4.19E+18,0.0369456,8.08552,9.537
9.248,4.32E+18,0.0363225,8.26457,9.538
9.249,4.45E+18,0.035803,8.34625,9.539
9.25,4.58E+18,0.0357501,8.2499,9.54
9.251,4.70E+18,0.035842,8.44525,9.541
9.252,4.83E+18,0.035509,8.50932,9.542
9.253,4.97E+18,0.0350148,8.50957,9.543
9.254,5.10E+18,0.0349979,8.61154,9.544
9.255,5.23E+18,0.0346484,8.77743,9.545
9.256,5.37E+18,0.0343297,8.86297,9.546
9.257,5.50E+18,0.0341218,8.85108,9.547
9.258,5.64E+18,0.0338809,8.95344,9.548
9.259,5.78E+18,0.0333327,9.02245,9.549
9.26,5.92E+18,0.0328707,9.10572,9.55
9.261,6.04E+18,0.0327609,9.2358,9.551
9.262,6.17E+18,0.0324574,9.3099,9.552
9.263,6.30E+18,0.0323282,9.44888,9.553
9.264,6.42E+18,0.0321346,9.59971,9.554
9.265,6.55E+18,0.0314884,9.68055,9.555
9.266,6.68E+18,0.0309107,9.79933,9.556
9.267,6.78E+18,0.0307084,9.99797,9.557
9.268,6.89E+18,0.0306613,10.2061,9.558
9.269,7.00E+18,0.0299889,10.1937,9.559
9.27,7.05E+18,0.0303462,10.1752,9.56
9.271,7.19E+18,0.0295882,10.1862,9.561
9.272,7.25E+18,0.0293393,10.4283,9.562
9.273,7.32E+18,0.0289798,10.5891,9.563
9.274,7.39E+18,0.028439,10.6721,9.564
9.275,7.44E+18,0.0282121,10.6282,9.565
9.276,7.47E+18,0.0281818,10.6191,9.566
9.277,7.51E+18,0.027965,10.9716,9.567
9.278,7.53E+18,0.0277056,11.1671,9.568
9.279,7.54E+18,0.0272317,11.3477,9.569
9.28,7.55E+18,0.0268354,11.4214,9.57
9.281,7.53E+18,0.026785,11.3319,9.571
9.282,7.50E+18,0.0266338,11.7067,9.572
9.283,7.48E+18,0.0259377,11.4541,9.573
9.284,7.44E+18,0.0254757,11.4356,9.574
9.285,7.37E+18,0.0255052,11.9147,9.575
9.286,7.30E+18,0.0253046,11.9627,9.576
9.287,7.23E+18,0.0249181,12.1679,9.577
9.288,7.15E+18,0.0246576,12.2836,9.578
9.289,7.05E+18,0.0245298,12.2558,9.579
9.29,6.96E+18,0.0239177,12.2554,9.58
9.291,6.85E+18,0.0234598,12.4551,9.581
9.292,6.73E+18,0.0230727,12.6996,9.582
9.293,6.61E+18,0.0227204,12.9105,9.583
9.294,6.47E+18,0.0225378,12.7688,9.584
9.295,6.33E+18,0.0222934,12.8626,9.585
9.296,6.19E+18,0.0219797,13.1273,9.586
9.297,6.05E+18,0.0215336,13.042,9.587
9.298,5.87E+18,0.0211509,13.0416,9.588
9.299,5.75E+18,0.0208266,13.403,9.589
9.3,5.67E+18,0.0206591,13.5,9.59
9.301,5.37E+18,0.0205147,13.5946,9.591
9.302,5.31E+18,0.0202239,13.6866,9.592
9.303,5.13E+18,0.0197891,13.7761,9.593
9.304,4.93E+18,0.0194488,13.863,9.594
9.305,4.81E+18,0.0192789,13.9473,9.595
9.306,4.63E+18,0.0192232,14.0288,9.596
9.307,4.43E+18,0.0192189,14.1077,9.597
9.308,4.30E+18,0.0189535,14.1838,9.598
9.309,4.16E+18,0.0186743,14.2571,9.599
9.31,3.96E+18,0.0183766,14.3277,9.6
9.311,3.79E+18,0.0180342,14.3953,9.601
9.312,3.68E+18,0.0176105,14.4601,9.602
9.313,3.54E+18,0.0172908,14.5219,9.603
9.314,3.35E+18,0.0170931,14.5808,9.604
9.315,3.20E+18,0.0169435,14.6367,9.605
9.316,3.10E+18,0.0168426,14.6896,9.606
9.317,2.96E+18,0.0166307,14.7394,9.607
9.318,2.79E+18,0.0162882,14.7861,9.608
9.319,2.65E+18,0.0160264,14.8296,9.609
9.32,2.56E+18,0.0159202,14.87,9.61
9.321,2.46E+18,0.0157732,14.9072,9.611
9.322,2.31E+18,0.0153852,14.9414,9.612
9.323,2.17E+18,0.0149973,14.9728,9.613
9.324,2.07E+18,0.014932,15.0015,9.614
9.325,2.00E+18,0.0149161,15.0278,9.615
9.326,1.90E+18,0.014789,15.0519,9.616
9.327,1.79E+18,0.0145548,15.074,9.617
9.328,1.66E+18,0.0143146,15.0942,9.618
9.329,1.56E+18,0.013986,15.1128,9.619
9.33,1.50E+18,0.0136574,15.13,9.62
9.331,1.47E+18,0.0137328,15.1459,9.621
9.332,1.38E+18,0.0135615,15.1605,9.622
9.333,1.26E+18,0.0133903,15.1739,9.623
9.334,1.19E+18,0.0131849,15.1861,9.624
9.335,1.14E+18,0.0129766,15.197,9.625
9.336,1.09E+18,0.0127857,15.2067,9.626
9.337,1.02E+18,0.0126494,15.2152,9.627
9.338,9.43E+17,0.012513,15.2225,9.628
9.339,8.84E+17,0.0123261,15.2285,9.629
9.34,8.44E+17,0.0120867,15.2333,9.63
9.341,8.09E+17,0.0118473,15.237,9.631
9.342,7.62E+17,0.0117016,15.2394,9.632
9.343,7.06E+17,0.0116078,15.2406,9.633
9.344,6.52E+17,0.0115139,15.2406,9.634
9.345,6.13E+17,0.0113944,15.2394,9.635
9.346,5.85E+17,0.0112636,15.237,9.636
9.347,5.59E+17,0.0111327,15.2334,9.637
9.348,5.25E+17,0.0109667,15.2287,9.638
9.349,4.85E+17,0.0107827,15.2227,9.639
9.35,4.47E+17,0.0105987,15.2156,9.64
9.351,4.18E+17,0.0104465,15.2073,9.641
9.352,3.99E+17,0.0103133,15.1978,9.642
9.353,3.80E+17,0.0101801,15.1871,9.643
9.354,3.56E+17,0.0100895,15.1753,9.644
9.355,3.28E+17,0.0100294,15.1623,9.645
9.356,3.01E+17,0.00996919,15.1482,9.646
9.357,2.85E+17,0.0098927,15.1328,9.647
9.358,2.75E+17,0.00980222,15.1164,9.648
9.359,2.61E+17,0.00971175,15.0988,9.649
9.36,2.33E+17,0.00958387,15.08,9.65
9.361,2.10E+17,0.00945275,15.0601,9.651
9.362,1.99E+17,0.00932645,15.0391,9.652
9.363,1.92E+17,0.00921702,15.0171,9.653
9.364,1.83E+17,0.00912915,14.9941,9.654
9.365,1.73E+17,0.00904127,14.9701,9.655
9.366,1.61E+17,0.00894605,14.9453,9.656
9.367,1.48E+17,0.00883908,14.9196,9.657
9.368,1.36E+17,0.00873212,14.8931,9.658
9.369,1.27E+17,0.00862393,14.866,9.659
9.37,1.20E+17,0.00851324,14.8381,9.66
9.371,1.15E+17,0.00840255,14.8097,9.661
9.372,1.08E+17,0.00829326,14.7806,9.662
9.373,9.99E+16,0.00818786,14.7511,9.663
9.374,9.16E+16,0.00808245,14.7211,9.664
9.375,8.47E+16,0.00798472,14.6906,9.665
9.376,8.00E+16,0.00791699,14.6599,9.666
9.377,7.63E+16,0.00784926,14.6288,9.667
9.378,7.22E+16,0.00777468,14.5974,9.668
9.379,6.70E+16,0.00765702,14.5659,9.669
9.38,6.14E+16,0.00753936,14.5342,9.67
9.381,5.67E+16,0.00742927,14.5024,9.671
9.382,5.34E+16,0.00742313,14.4706,9.672
9.383,5.09E+16,0.00741699,14.4388,9.673
9.384,4.83E+16,0.00741086,14.407,9.674
9.385,4.49E+16,0.00727858,14.3754,9.675
9.386,4.13E+16,0.00714571,14.3439,9.676
9.387,3.80E+16,0.00701285,14.3126,9.677
9.388,3.57E+16,0.00697051,14.2816,9.678
9.389,3.40E+16,0.00693602,14.251,9.679
9.39,3.24E+16,0.00690152,14.2207,9.68
9.391,3.03E+16,0.00679174,14.1908,9.681
9.392,2.78E+16,0.00666771,14.1614,9.682
9.393,2.56E+16,0.00654368,14.1326,9.683
9.394,2.40E+16,0.00652369,14.1043,9.684
9.395,2.28E+16,0.00653725,14.0767,9.685
9.396,2.18E+16,0.00655082,14.0498,9.686
9.397,2.04E+16,0.0064931,14.0236,9.687
9.398,1.89E+16,0.00639991,13.9982,9.688
9.399,1.73E+16,0.00630672,13.9736,9.689
9.4,1.62E+16,0.0062395,13.95,9.69
