Time (ns),Neutrons out per ns,DSR,Tion (keV)
9.73,1.92E+16,0.0240128,4.92
9.731,1.96E+16,0.0241692,4.92282
9.732,2.02E+16,0.0243256,4.92564
9.733,2.10E+16,0.024482,4.92847
9.734,2.20E+16,0.0246384,4.93131
9.735,2.28E+16,0.0247948,4.93417
9.736,2.35E+16,0.0249114,4.93705
9.737,2.41E+16,0.0250548,4.93995
9.738,2.47E+16,0.0251981,4.94287
9.739,2.57E+16,0.0253826,4.94583
9.74,2.68E+16,0.0255768,4.94883
9.741,2.78E+16,0.025771,4.95186
9.742,2.87E+16,0.0259917,4.95493
9.743,2.94E+16,0.0262216,4.95806
9.744,3.01E+16,0.0264516,4.96123
9.745,3.11E+16,0.0266497,4.96446
9.746,3.23E+16,0.0268322,4.96774
9.747,3.36E+16,0.0270148,4.97109
9.748,3.51E+16,0.0272618,4.9745
9.749,3.63E+16,0.0275512,4.97799
9.75,3.69E+16,0.0278406,4.98155
9.751,3.72E+16,0.0278305,4.98518
9.752,3.86E+16,0.0281259,4.9889
9.753,4.05E+16,0.0284212,4.99271
9.754,4.20E+16,0.0286702,4.9966
9.755,4.30E+16,0.0288657,5.00059
9.756,4.39E+16,0.0290612,5.00467
9.757,4.51E+16,0.0292593,5.00886
9.758,4.69E+16,0.0294615,5.01315
9.759,4.87E+16,0.0296636,5.01755
9.76,5.02E+16,0.029889,5.02206
9.761,5.14E+16,0.0301627,5.02669
9.762,5.25E+16,0.0304365,5.03145
9.763,5.40E+16,0.0306824,5.03632
9.764,5.60E+16,0.0308455,5.04133
9.765,5.81E+16,0.0310085,5.04646
9.766,6.00E+16,0.0311837,5.05174
9.767,6.13E+16,0.0314144,5.05715
9.768,6.26E+16,0.031645,5.06271
9.769,6.43E+16,0.0318795,5.06841
9.77,6.66E+16,0.0321468,5.07427
9.771,6.91E+16,0.0324141,5.08028
9.772,7.13E+16,0.0326798,5.08646
9.773,7.29E+16,0.0328984,5.09279
9.774,7.44E+16,0.033117,5.0993
9.775,7.63E+16,0.0333356,5.10598
9.776,7.91E+16,0.0335743,5.11283
9.777,8.22E+16,0.033814,5.11986
9.778,8.47E+16,0.0340537,5.12707
9.779,8.59E+16,0.0343021,5.13447
9.78,8.72E+16,0.0345516,5.14206
9.781,9.03E+16,0.0347085,5.14985
9.782,9.39E+16,0.0349682,5.15784
9.783,9.73E+16,0.0352609,5.16602
9.784,1.00E+17,0.0355536,5.17442
9.785,1.03E+17,0.0357546,5.18302
9.786,1.05E+17,0.0359215,5.19184
9.787,1.07E+17,0.0360884,5.20088
9.788,1.11E+17,0.0362761,5.21014
9.789,1.15E+17,0.0364748,5.21963
9.79,1.19E+17,0.0366736,5.22934
9.791,1.22E+17,0.0369197,5.23929
9.792,1.25E+17,0.0372009,5.24948
9.793,1.27E+17,0.0374821,5.25991
9.794,1.31E+17,0.0376843,5.27058
9.795,1.36E+17,0.037806,5.2815
9.796,1.41E+17,0.0379278,5.29268
9.797,1.45E+17,0.0380819,5.30412
9.798,1.49E+17,0.0382814,5.31581
9.799,1.52E+17,0.0384808,5.32777
9.8,1.57E+17,0.0387277,5.34
9.801,1.63E+17,0.0390678,5.3525
9.802,1.69E+17,0.0394079,5.36527
9.803,1.74E+17,0.0396759,5.37832
9.804,1.77E+17,0.0397369,5.39163
9.805,1.81E+17,0.0397979,5.40521
9.806,1.90E+17,0.0399024,5.41906
9.807,2.02E+17,0.0402039,5.43318
9.808,2.10E+17,0.0405054,5.44757
9.809,2.04E+17,0.0407821,5.46222
9.81,1.86E+17,0.0409149,5.47713
9.811,1.86E+17,0.0411158,5.49231
9.812,1.96E+17,0.0413061,5.50775
9.813,2.04E+17,0.041428,5.52345
9.814,2.10E+17,0.0415499,5.53941
9.815,2.15E+17,0.0417095,5.55563
9.816,2.22E+17,0.0419823,5.57211
9.817,2.30E+17,0.0422552,5.58885
9.818,2.38E+17,0.0425054,5.60584
9.819,2.46E+17,0.0427186,5.62309
9.82,2.54E+17,0.0429319,5.6406
9.821,2.63E+17,0.043094,5.65836
9.822,2.72E+17,0.0432163,5.67637
9.823,2.82E+17,0.0433386,5.69464
9.824,2.92E+17,0.0434281,5.71315
9.825,3.02E+17,0.0435091,5.73192
9.826,3.13E+17,0.0436057,5.75093
9.827,3.24E+17,0.0439091,5.7702
9.828,3.36E+17,0.0442125,5.78971
9.829,3.48E+17,0.0444199,5.80947
9.83,3.62E+17,0.0444804,5.82947
9.831,3.75E+17,0.0445408,5.84972
9.832,3.89E+17,0.044656,5.87021
9.833,4.04E+17,0.0447879,5.89095
9.834,4.19E+17,0.0449096,5.91192
9.835,4.35E+17,0.0449853,5.93314
9.836,4.52E+17,0.0450611,5.9546
9.837,4.70E+17,0.0452498,5.97629
9.838,4.88E+17,0.0455019,5.99823
9.839,5.07E+17,0.0457651,6.0204
9.84,5.27E+17,0.046095,6.04281
9.841,5.47E+17,0.0459722,6.06545
9.842,5.69E+17,0.0460708,6.08833
9.843,5.90E+17,0.0462899,6.11144
9.844,6.13E+17,0.0464383,6.13478
9.845,6.37E+17,0.0463994,6.15835
9.846,6.62E+17,0.0463606,6.18216
9.847,6.87E+17,0.0464897,6.20619
9.848,7.13E+17,0.0466376,6.23046
9.849,7.40E+17,0.0467364,6.25495
9.85,7.69E+17,0.0467967,6.27967
9.851,7.98E+17,0.0467977,6.30462
9.852,8.28E+17,0.0466283,6.32985
9.853,8.60E+17,0.0464589,6.35543
9.854,8.93E+17,0.0466241,6.3814
9.855,9.28E+17,0.0467917,6.40782
9.856,9.64E+17,0.046739,6.43474
9.857,1.00E+18,0.0466183,6.46223
9.858,1.04E+18,0.0467299,6.49034
9.859,1.08E+18,0.0470159,6.51913
9.86,1.13E+18,0.0471932,6.54865
9.861,1.17E+18,0.0472149,6.57896
9.862,1.22E+18,0.0472504,6.61011
9.863,1.27E+18,0.047316,6.64216
9.864,1.32E+18,0.0473604,6.67517
9.865,1.38E+18,0.0473505,6.7092
9.866,1.43E+18,0.0472395,6.74429
9.867,1.49E+18,0.0469033,6.78051
9.868,1.57E+18,0.0468027,6.81792
9.869,1.65E+18,0.0470586,6.85656
9.87,1.67E+18,0.0468912,6.8965
9.871,1.77E+18,0.0468527,6.93779
9.872,1.88E+18,0.0468946,6.98048
9.873,1.95E+18,0.0469638,7.02464
9.874,2.04E+18,0.0469698,7.07033
9.875,2.15E+18,0.0469185,7.11758
9.876,2.25E+18,0.0467326,7.16647
9.877,2.37E+18,0.0466873,7.21705
9.878,2.49E+18,0.04671,7.26938
9.879,2.62E+18,0.0465385,7.3235
9.88,2.76E+18,0.0465364,7.37949
9.881,2.90E+18,0.0467157,7.43739
9.882,3.06E+18,0.0465209,7.49726
9.883,3.23E+18,0.0465214,7.55915
9.884,3.41E+18,0.0466896,7.62313
9.885,3.61E+18,0.045998,7.68925
9.886,3.82E+18,0.0458732,7.75756
9.887,4.04E+18,0.0459349,7.82813
9.888,4.28E+18,0.0457387,7.901
9.889,4.54E+18,0.0456237,7.97624
9.89,4.81E+18,0.0451587,8.0539
9.891,5.13E+18,0.0447305,8.13403
9.892,5.48E+18,0.0446012,8.2167
9.893,5.83E+18,0.0446147,8.30196
9.894,6.22E+18,0.0443504,8.38987
9.895,6.64E+18,0.044142,8.48047
9.896,7.12E+18,0.0442812,8.57384
9.897,7.63E+18,0.0439238,8.67002
9.898,8.17E+18,0.0434322,8.76907
9.899,8.81E+18,0.0431069,8.87104
9.9,9.38E+18,0.0432488,8.976
9.901,1.02E+19,0.0427348,9.08431
9.902,1.10E+19,0.0429373,9.19757
9.903,1.19E+19,0.043009,9.31769
9.904,1.29E+19,0.0424145,9.44657
9.905,1.40E+19,0.0422936,9.58613
9.906,1.52E+19,0.0416904,9.73827
9.907,1.66E+19,0.041238,9.90491
9.908,1.82E+19,0.0407146,10.088
9.909,1.99E+19,0.0406911,10.2893
9.91,2.18E+19,0.0402786,10.5109
9.911,2.41E+19,0.0399686,10.7546
9.912,2.65E+19,0.0395334,11.0223
9.913,2.93E+19,0.0399583,11.316
9.914,3.23E+19,0.038563,11.6376
9.915,3.55E+19,0.0383579,11.9889
9.916,3.91E+19,0.0382461,12.3719
9.917,4.31E+19,0.0376003,12.7884
9.918,4.72E+19,0.036938,13.2405
9.919,5.15E+19,0.036989,13.73
9.92,5.60E+19,0.0363415,14.2588
9.921,6.02E+19,0.0360267,14.828
9.922,6.50E+19,0.035598,15.436
9.923,6.94E+19,0.0348364,16.0801
9.924,7.35E+19,0.0339321,16.7578
9.925,7.76E+19,0.0341724,17.4667
9.926,8.14E+19,0.0330112,18.2041
9.927,8.49E+19,0.0326443,18.9676
9.928,8.88E+19,0.0320618,19.7546
9.929,9.09E+19,0.0310045,20.5625
9.93,9.33E+19,0.0316765,21.389
9.931,9.46E+19,0.0307493,22.2313
9.932,9.59E+19,0.0305427,23.0871
9.933,9.64E+19,0.0301603,23.9537
9.934,9.67E+19,0.02972,24.8287
9.935,9.63E+19,0.0286844,25.7095
9.936,9.54E+19,0.028016,26.5936
9.937,9.41E+19,0.027434,27.4784
9.938,9.29E+19,0.0268619,28.3615
9.939,9.09E+19,0.0269183,29.2402
9.94,8.85E+19,0.0266221,30.1121
9.941,8.64E+19,0.0259018,30.9748
9.942,8.33E+19,0.0255007,31.8262
9.943,8.12E+19,0.0236738,32.6644
9.944,7.84E+19,0.0241569,33.4875
9.945,7.56E+19,0.0234729,34.2936
9.946,7.20E+19,0.0230978,35.0808
9.947,6.93E+19,0.0225452,35.8472
9.948,6.60E+19,0.0221766,36.5909
9.949,6.30E+19,0.0217647,37.3099
9.95,6.00E+19,0.021085,38.0024
9.951,5.66E+19,0.0204398,38.6665
9.952,5.41E+19,0.0200953,39.3002
9.953,5.04E+19,0.0193407,39.9016
9.954,4.83E+19,0.0188774,40.4688
9.955,4.51E+19,0.018509,41
9.956,4.24E+19,0.0181302,41.4937
9.957,4.02E+19,0.0176295,41.9504
9.958,3.71E+19,0.0169467,42.3712
9.959,3.54E+19,0.017045,42.7571
9.96,3.26E+19,0.0164563,43.1093
9.961,3.05E+19,0.0159254,43.4287
9.962,2.89E+19,0.0156222,43.7165
9.963,2.66E+19,0.0153317,43.9736
9.964,2.47E+19,0.0149658,44.201
9.965,2.34E+19,0.0144744,44.4
9.966,2.15E+19,0.0140063,44.5716
9.967,1.97E+19,0.0135568,44.7172
9.968,1.86E+19,0.0131531,44.8387
9.969,1.71E+19,0.0129567,44.9376
9.97,1.56E+19,0.0128887,45.0155
9.971,1.46E+19,0.0123302,45.074
9.972,1.36E+19,0.0119228,45.1149
9.973,1.23E+19,0.0118177,45.1396
9.974,1.13E+19,0.0116543,45.15
9.975,1.06E+19,0.0114631,45.1475
9.976,9.65E+18,0.0111373,45.1338
9.977,8.77E+18,0.0108066,45.1106
9.978,8.24E+18,0.0104649,45.0795
9.979,7.57E+18,0.0101773,45.0421
9.98,6.79E+18,0.00992586,45
9.981,6.29E+18,0.00976204,44.9546
9.982,5.88E+18,0.00960546,44.9063
9.983,5.29E+18,0.00939586,44.8551
9.984,4.78E+18,0.00916399,44.801
9.985,4.48E+18,0.00888208,44.7442
9.986,4.13E+18,0.00866089,44.6846
9.987,3.69E+18,0.00850643,44.6224
9.988,3.36E+18,0.00828492,44.5576
9.989,3.16E+18,0.0080208,44.4903
9.99,2.90E+18,0.00780941,44.4205
9.991,2.57E+18,0.00784729,44.3483
9.992,2.36E+18,0.00772184,44.2737
9.993,2.21E+18,0.00755119,44.1968
9.994,2.01E+18,0.00728317,44.1178
9.995,1.78E+18,0.00699794,44.0365
9.996,1.65E+18,0.00694681,43.9532
9.997,1.54E+18,0.00692677,43.8678
9.998,1.39E+18,0.00670765,43.7804
9.999,1.24E+18,0.0064647,43.6911
10,1.14E+18,0.00636179,43.6
10.001,1.07E+18,0.00627861,43.5071
10.002,9.72E+17,0.00613702,43.4124
10.003,8.65E+17,0.00598296,43.316
10.004,7.92E+17,0.00585288,43.2181
10.005,7.43E+17,0.00573179,43.1186
10.006,6.81E+17,0.005664,43.0176
10.007,6.07E+17,0.00563441,42.9151
10.008,5.49E+17,0.00557245,42.8113
10.009,5.13E+17,0.00546059,42.7061
10.01,4.77E+17,0.00534618,42.5997
10.011,4.29E+17,0.00521879,42.4921
10.012,3.83E+17,0.0050914,42.3834
10.013,3.53E+17,0.00496312,42.2736
10.014,3.31E+17,0.00483474,42.1628
10.015,3.04E+17,0.00471155,42.051
10.016,2.70E+17,0.00459175,41.9383
10.017,2.45E+17,0.00451706,41.8248
10.018,2.31E+17,0.0045553,41.7105
10.019,2.14E+17,0.00459354,41.5955
10.02,1.86E+17,0.00443271,41.4798
10.021,1.69E+17,0.00432983,41.3635
10.022,1.60E+17,0.00426209,41.2467
10.023,1.50E+17,0.00420444,41.1294
10.024,1.38E+17,0.00414648,41.0117
10.025,1.24E+17,0.00408738,40.8936
10.026,1.11E+17,0.00402827,40.7753
10.027,9.93E+16,0.00398781,40.6567
10.028,8.74E+16,0.00398781,40.5379
10.029,7.54E+16,0.00398781,40.419
10.03,6.34E+16,0.00398781,40.3
