Time (ns),Neutrons out per ns,DSR,Tion (keV)
9.38,4.10E+16,0.0290912,5.71402
9.381,4.22E+16,0.0292857,5.71212
9.382,4.33E+16,0.0294854,5.71051
9.383,4.45E+16,0.0296901,5.70918
9.384,4.58E+16,0.0298996,5.70806
9.385,4.71E+16,0.0301136,5.70713
9.386,4.84E+16,0.0303319,5.70634
9.387,4.97E+16,0.0305541,5.70565
9.388,5.11E+16,0.0307801,5.70503
9.389,5.25E+16,0.0310095,5.70442
9.39,5.40E+16,0.0312422,5.70379
9.391,5.55E+16,0.0314778,5.70309
9.392,5.71E+16,0.0317161,5.7023
9.393,5.87E+16,0.0319569,5.70136
9.394,6.04E+16,0.0321999,5.70024
9.395,6.21E+16,0.0324448,5.69889
9.396,6.39E+16,0.0326913,5.69727
9.397,6.57E+16,0.0329393,5.69535
9.398,6.76E+16,0.0331884,5.69308
9.399,6.96E+16,0.0334384,5.69042
9.4,7.16E+16,0.0336891,5.68733
9.401,7.38E+16,0.0339402,5.68378
9.402,7.59E+16,0.0341915,5.67979
9.403,7.82E+16,0.034443,5.67539
9.404,8.05E+16,0.0346946,5.6706
9.405,8.29E+16,0.0349461,5.66545
9.406,8.54E+16,0.0351975,5.65998
9.407,8.80E+16,0.0354485,5.65421
9.408,9.07E+16,0.0356992,5.64816
9.409,9.34E+16,0.0359494,5.64187
9.41,9.63E+16,0.036199,5.63537
9.411,9.92E+16,0.0364479,5.62868
9.412,1.02E+17,0.036696,5.62183
9.413,1.05E+17,0.0369431,5.61485
9.414,1.09E+17,0.0371892,5.60777
9.415,1.12E+17,0.0374342,5.60062
9.416,1.15E+17,0.0376779,5.59343
9.417,1.19E+17,0.0379202,5.58622
9.418,1.22E+17,0.0381611,5.57902
9.419,1.26E+17,0.0384003,5.57186
9.42,1.30E+17,0.0386379,5.56477
9.421,1.34E+17,0.0388737,5.55777
9.422,1.38E+17,0.0391075,5.55091
9.423,1.42E+17,0.0393393,5.5442
9.424,1.47E+17,0.039569,5.53767
9.425,1.51E+17,0.0397965,5.53135
9.426,1.56E+17,0.0400216,5.52527
9.427,1.60E+17,0.0402442,5.51946
9.428,1.65E+17,0.0404643,5.51394
9.429,1.70E+17,0.0406816,5.50875
9.43,1.75E+17,0.0408962,5.50392
9.431,1.81E+17,0.0411079,5.49946
9.432,1.86E+17,0.0413166,5.49542
9.433,1.92E+17,0.0415222,5.49181
9.434,1.97E+17,0.0417245,5.48867
9.435,2.03E+17,0.0419235,5.48602
9.436,2.09E+17,0.0421191,5.4839
9.437,2.15E+17,0.0423111,5.48233
9.438,2.22E+17,0.0424994,5.48134
9.439,2.28E+17,0.0426839,5.48096
9.44,2.35E+17,0.0428646,5.48121
9.441,2.42E+17,0.0430413,5.48213
9.442,2.49E+17,0.0432139,5.48375
9.443,2.57E+17,0.0433822,5.48609
9.444,2.64E+17,0.0435463,5.48917
9.445,2.72E+17,0.0437059,5.49304
9.446,2.80E+17,0.0438609,5.49771
9.447,2.89E+17,0.0440114,5.50322
9.448,2.98E+17,0.044157,5.5096
9.449,3.07E+17,0.0442978,5.51686
9.45,3.16E+17,0.0444336,5.52505
9.451,3.25E+17,0.0445643,5.53418
9.452,3.35E+17,0.04469,5.54424
9.453,3.46E+17,0.0448106,5.5552
9.454,3.56E+17,0.0449261,5.56705
9.455,3.68E+17,0.0450365,5.57977
9.456,3.79E+17,0.0451418,5.59333
9.457,3.91E+17,0.0452421,5.60771
9.458,4.04E+17,0.0453374,5.6229
9.459,4.17E+17,0.0454276,5.63887
9.46,4.30E+17,0.0455127,5.6556
9.461,4.45E+17,0.0455928,5.67307
9.462,4.59E+17,0.0456678,5.69126
9.463,4.74E+17,0.0457378,5.71015
9.464,4.90E+17,0.0458028,5.72971
9.465,5.07E+17,0.0458627,5.74993
9.466,5.24E+17,0.0459176,5.77078
9.467,5.42E+17,0.0459675,5.79225
9.468,5.60E+17,0.0460124,5.81432
9.469,5.80E+17,0.0460522,5.83695
9.47,6.00E+17,0.0460871,5.86014
9.471,6.21E+17,0.0461169,5.88386
9.472,6.42E+17,0.0461417,5.90808
9.473,6.65E+17,0.0461616,5.9328
9.474,6.88E+17,0.0461764,5.95798
9.475,7.13E+17,0.0461863,5.98361
9.476,7.38E+17,0.0461912,6.00966
9.477,7.65E+17,0.046191,6.03612
9.478,7.92E+17,0.046186,6.06297
9.479,8.20E+17,0.0461759,6.09017
9.48,8.50E+17,0.0461609,6.11772
9.481,8.81E+17,0.0461409,6.14559
9.482,9.13E+17,0.0461159,6.17376
9.483,9.46E+17,0.046086,6.20221
9.484,9.80E+17,0.0460512,6.23091
9.485,1.02E+18,0.0460114,6.25986
9.486,1.05E+18,0.0459666,6.28902
9.487,1.09E+18,0.0459169,6.31837
9.488,1.13E+18,0.0458623,6.3479
9.489,1.17E+18,0.0458028,6.37758
9.49,1.21E+18,0.0457383,6.4074
9.491,1.25E+18,0.0456689,6.43733
9.492,1.29E+18,0.0455945,6.46734
9.493,1.34E+18,0.0455153,6.49743
9.494,1.38E+18,0.0454312,6.52757
9.495,1.43E+18,0.0453421,6.55773
9.496,1.47E+18,0.0452481,6.5879
9.497,1.52E+18,0.0451493,6.61806
9.498,1.57E+18,0.0450455,6.64818
9.499,1.62E+18,0.0449369,6.67824
9.5,1.67E+18,0.0448234,6.70823
9.501,1.72E+18,0.044705,6.73814
9.502,1.77E+18,0.0445817,6.76803
9.503,1.83E+18,0.0444537,6.79798
9.504,1.89E+18,0.044321,6.82809
9.505,1.95E+18,0.0441835,6.85842
9.506,2.01E+18,0.0440414,6.88906
9.507,2.07E+18,0.0438947,6.92009
9.508,2.14E+18,0.0437435,6.95159
9.509,2.21E+18,0.0435877,6.98365
9.51,2.29E+18,0.0434275,7.01635
9.511,2.37E+18,0.0432629,7.04976
9.512,2.45E+18,0.0430939,7.08397
9.513,2.54E+18,0.0429206,7.11906
9.514,2.63E+18,0.0427431,7.15511
9.515,2.73E+18,0.0425613,7.19221
9.516,2.83E+18,0.0423753,7.23043
9.517,2.94E+18,0.0421853,7.26985
9.518,3.05E+18,0.0419911,7.31057
9.519,3.16E+18,0.0417929,7.35265
9.52,3.27E+18,0.0415907,7.39619
9.521,3.39E+18,0.0413846,7.44125
9.522,3.51E+18,0.0411747,7.48794
9.523,3.63E+18,0.0409608,7.53631
9.524,3.75E+18,0.0407432,7.58647
9.525,3.87E+18,0.0405218,7.63848
9.526,4.00E+18,0.0402967,7.69243
9.527,4.12E+18,0.040068,7.74841
9.528,4.25E+18,0.0398357,7.80648
9.529,4.40E+18,0.0395998,7.86675
9.53,4.55E+18,0.0393604,7.92927
9.531,4.71E+18,0.0391175,7.99415
9.532,4.88E+18,0.0388712,8.06145
9.533,5.04E+18,0.0386216,8.13127
9.534,5.23E+18,0.0383686,8.20368
9.535,5.40E+18,0.0381124,8.27876
9.536,5.59E+18,0.0378529,8.35659
9.537,5.78E+18,0.0375902,8.43727
9.538,5.98E+18,0.0373244,8.52086
9.539,6.20E+18,0.0370556,8.60745
9.54,6.38E+18,0.0367837,8.69712
9.541,6.60E+18,0.0365088,8.78996
9.542,6.83E+18,0.0362309,8.88604
9.543,7.06E+18,0.0359502,8.98544
9.544,7.26E+18,0.0356666,9.08826
9.545,7.49E+18,0.0353802,9.19456
9.546,7.72E+18,0.0350911,9.30443
9.547,7.96E+18,0.0347992,9.41796
9.548,8.21E+18,0.0345047,9.53521
9.549,8.43E+18,0.0342076,9.65629
9.55,8.67E+18,0.0339079,9.78126
9.551,8.92E+18,0.0336057,9.91016
9.552,9.14E+18,0.0333011,10.0428
9.553,9.37E+18,0.0329942,10.1791
9.554,9.58E+18,0.0326851,10.3188
9.555,9.80E+18,0.0323739,10.4617
9.556,1.00E+19,0.0320608,10.6077
9.557,1.02E+19,0.0317458,10.7564
9.558,1.04E+19,0.0314291,10.9078
9.559,1.06E+19,0.0311108,11.0617
9.56,1.08E+19,0.0307909,11.2178
9.561,1.09E+19,0.0304696,11.376
9.562,1.11E+19,0.0301471,11.5361
9.563,1.12E+19,0.0298233,11.6979
9.564,1.13E+19,0.0294985,11.8612
9.565,1.14E+19,0.0291727,12.0257
9.566,1.15E+19,0.028846,12.1914
9.567,1.15E+19,0.0285187,12.3581
9.568,1.16E+19,0.0281906,12.5254
9.569,1.16E+19,0.0278621,12.6933
9.57,1.16E+19,0.0275332,12.8616
9.571,1.15E+19,0.0272039,13.03
9.572,1.15E+19,0.0268745,13.1985
9.573,1.14E+19,0.026545,13.3667
9.574,1.13E+19,0.0262155,13.5344
9.575,1.12E+19,0.0258862,13.7016
9.576,1.11E+19,0.0255572,13.868
9.577,1.09E+19,0.0252285,14.0335
9.578,1.07E+19,0.0249003,14.1977
9.579,1.06E+19,0.0245726,14.3606
9.58,1.03E+19,0.0242457,14.522
9.581,1.01E+19,0.0239196,14.6816
9.582,9.92E+18,0.0235944,14.8393
9.583,9.67E+18,0.0232703,14.9948
9.584,9.42E+18,0.0229473,15.1481
9.585,9.17E+18,0.0226255,15.2988
9.586,8.91E+18,0.0223052,15.4469
9.587,8.63E+18,0.0219863,15.592
9.588,8.37E+18,0.021669,15.7341
9.589,8.09E+18,0.0213534,15.8729
9.59,7.81E+18,0.0210396,16.0083
9.591,7.53E+18,0.0207277,16.14
9.592,7.25E+18,0.0204179,16.2679
9.593,6.99E+18,0.0201102,16.3918
9.594,6.71E+18,0.0198048,16.5114
9.595,6.42E+18,0.0195017,16.6266
9.596,6.16E+18,0.0192011,16.7373
9.597,5.90E+18,0.0189032,16.8431
9.598,5.63E+18,0.0186079,16.944
9.599,5.38E+18,0.0183154,17.0397
9.6,5.12E+18,0.0180258,17.13
9.601,4.90E+18,0.0177393,17.2148
9.602,4.65E+18,0.0174559,17.2942
9.603,4.43E+18,0.0171757,17.3683
9.604,4.20E+18,0.0168988,17.4373
9.605,3.99E+18,0.0166254,17.5012
9.606,3.78E+18,0.0163553,17.5601
9.607,3.58E+18,0.0160889,17.6143
9.608,3.39E+18,0.0158261,17.6638
9.609,3.20E+18,0.0155671,17.7088
9.61,3.02E+18,0.0153119,17.7493
9.611,2.86E+18,0.0150607,17.7856
9.612,2.69E+18,0.0148134,17.8177
9.613,2.54E+18,0.0145703,17.8458
9.614,2.39E+18,0.0143314,17.87
9.615,2.25E+18,0.0140967,17.8904
9.616,2.12E+18,0.0138665,17.9071
9.617,1.99E+18,0.0136407,17.9204
9.618,1.86E+18,0.0134195,17.9302
9.619,1.75E+18,0.0132029,17.9367
9.62,1.64E+18,0.012991,17.9401
9.621,1.53E+18,0.012784,17.9405
9.622,1.44E+18,0.0125819,17.938
9.623,1.34E+18,0.0123848,17.9328
9.624,1.26E+18,0.0121928,17.9249
9.625,1.18E+18,0.0120059,17.9144
9.626,1.10E+18,0.0118244,17.9016
9.627,1.03E+18,0.0116482,17.8866
9.628,9.68E+17,0.0114774,17.8694
9.629,9.06E+17,0.0113123,17.8502
9.63,8.48E+17,0.0111527,17.8291
9.631,7.93E+17,0.0109989,17.8063
9.632,7.41E+17,0.0108508,17.7818
9.633,6.92E+17,0.0107087,17.7559
9.634,6.46E+17,0.0105726,17.7286
9.635,6.02E+17,0.0104425,17.7
9.636,5.60E+17,0.0103185,17.6703
9.637,5.21E+17,0.0102003,17.6396
9.638,4.84E+17,0.0100873,17.608
9.639,4.49E+17,0.00997926,17.5757
9.64,4.16E+17,0.0098756,17.5426
9.641,3.85E+17,0.00977593,17.509
9.642,3.56E+17,0.00967982,17.475
9.643,3.29E+17,0.00958682,17.4406
9.644,3.04E+17,0.0094965,17.406
9.645,2.80E+17,0.00940842,17.3713
9.646,2.58E+17,0.00932216,17.3366
9.647,2.37E+17,0.00923726,17.302
9.648,2.18E+17,0.0091533,17.2676
9.649,2.01E+17,0.00906984,17.2336
9.65,1.84E+17,0.00898644,17.2
9.651,1.69E+17,0.00890275,17.1669
9.652,1.56E+17,0.00881868,17.1344
9.653,1.43E+17,0.00873426,17.1025
9.654,1.32E+17,0.00864949,17.071
9.655,1.22E+17,0.00856438,17.0401
9.656,1.12E+17,0.00847893,17.0097
9.657,1.04E+17,0.00839315,16.9798
9.658,9.64E+16,0.00830705,16.9503
9.659,8.96E+16,0.00822064,16.9213
9.66,8.35E+16,0.00813392,16.8928
9.661,7.81E+16,0.0080469,16.8648
9.662,7.33E+16,0.0079596,16.8371
9.663,6.90E+16,0.007872,16.8099
9.664,6.52E+16,0.00778414,16.7831
9.665,6.18E+16,0.007696,16.7567
9.666,5.87E+16,0.0076076,16.7307
9.667,5.58E+16,0.00751895,16.7051
9.668,5.32E+16,0.00743006,16.6799
9.669,5.07E+16,0.00734092,16.655
9.67,4.82E+16,0.00725155,16.6304
9.671,4.58E+16,0.00716196,16.6062
9.672,4.33E+16,0.00707216,16.5824
9.673,4.09E+16,0.00698214,16.5588
9.674,3.84E+16,0.00689192,16.5355
9.675,3.60E+16,0.00680151,16.5125
9.676,3.35E+16,0.00671091,16.4898
9.677,3.11E+16,0.00662014,16.4674
9.678,2.86E+16,0.00652919,16.4452
9.679,2.62E+16,0.00643807,16.4233
9.68,2.37E+16,0.0063468,16.4016
